estimate,variance,se,z,p_normal,ci95_low,ci95_high,p_t_recipient,ci95_t_low,ci95_t_high,inference_valid,vuln_z,percent_change_10pp,percent_ci95_low,percent_ci95_high
-1.5542038657110084,0.24651920190949267,0.49650700086654637,-3.1302758329660594,0.0017464223320930315,-2.527339705481437,-0.5810680259405802,0.0022515981721198883,-2.538471087404657,-0.5699366440173597,True,-2.1105251844630333,-78.86424153032097,-92.01287811288617,-44.06993001955638
-1.5367090274756297,0.24171010954431912,0.4916402236842701,-3.125677992658509,0.0017739567993633168,-2.500306159248015,-0.5731118957032443,0.0022840663072861353,-2.5113284310167834,-0.5620896239344759,True,-2.082972274606653,-78.49122140566303,-91.79401286108893,-43.62316820769493
-1.5192141892402506,0.236954101467468,0.48677931495439286,-3.120950588014588,0.0018026827911940078,-2.4732841149699403,-0.5651442635105609,0.0023179024099220353,-2.484197408151354,-0.5542309703291473,True,-2.055419364750272,-78.11161793489052,-91.56924717578029,-43.17218409584336
-1.5017193510048719,0.2322511776789395,0.48192445225256986,-3.1160887230055754,0.0018326712382657343,-2.4462739206891015,-0.5571647813206421,0.002353185995495581,-2.457078370831395,-0.5463603311783487,True,-2.0278664548938914,-77.72531493004684,-91.33842769728882,-42.71691355502622
-1.484224512769493,0.22760133817873346,0.47707582015727173,-3.111087273884908,0.001863998401958867,-2.4192759381726536,-0.5491730873663325,0.002390002429860411,-2.4299716849621973,-0.538477340576789,True,-2.000313545037511,-77.33219415260088,-91.10139744768891,-42.25729052232657
-1.466729674534114,0.22300458296684997,0.472233610585746,-3.1059408768359833,0.001896746355590872,-2.392290543571489,-0.5411688054967392,0.0024284434474858897,-2.4028777309973197,-0.5305816180709082,True,-1.9727606351811302,-76.93213527725705,-90.85799577175958,-41.79324690936089
-1.449234836298735,0.21846091204328894,0.46739802314867457,-3.1006439148711338,0.0019310035161701333,-2.365318128115356,-0.5331515444821144,0.0024686077231669294,-2.37579690464166,-0.5226727679558101,True,-1.9452077253247495,-76.52501585512633,-90.60805827917973,-41.32471250535607
-1.431739998063356,0.21397032540805047,0.46256926552468924,-3.0951905039331633,0.0019668652326920106,-2.338359098846892,-0.5251208972798199,0.0025106015034951287,-2.348729617593883,-0.5147503785328287,True,-1.9176548154683688,-76.11071127624754,-90.35141678820877,-40.85161487446423
-1.4142451598279773,0.20953282306113452,0.4577475538559813,-3.0895744781476946,0.00200443443780554,-2.3114138793970094,-0.5170764402589452,0.0025545393051978837,-2.321676298330676,-0.5068140213252785,True,-1.8901019056119883,-75.68909473144707,-90.08789927112502,-40.373879246923686
-1.3967503215925985,0.20514840500254108,0.45293311316632734,-3.0837893741711926,0.0020438223706000422,-2.2844829108042046,-0.5090177323809923,0.002600544688397197,-2.29463739293543,-0.49886325024976697,True,-1.8625489957556076,-75.26003717352539,-89.81732980172062,-39.89142840364517
-1.3792554833572195,0.20081707123227013,0.4481261778029377,-3.0778284145760026,0.0020851493793179188,-2.2575666523805697,-0.500944314333869,0.0026487511139228945,-2.267613365974158,-0.4908976007402811,True,-1.834996085899227,-74.82340727775878,-89.53952850517977,-39.40418255377085
-1.3617606451218405,0.19653882175032172,0.44332699190363056,-3.0716844902100093,0.0021285458140161435,-2.2306655826274366,-0.4928557076162444,0.002699302895059065,-2.240604701421611,-0.4829165888220701,True,-1.8074431760428462,-74.37907140170374,-89.25431151069824,-38.9120592047193
-1.3442658068864617,0.19231365655669588,0.43853580989093227,-3.0653501414645987,0.0021741530205996048,-2.203780200203793,-0.48475141356913043,0.002752356255532868,-2.213611903640774,-0.4749197101321494,True,-1.7798902661864657,-73.92689354429214,-88.9614909072342,-38.41497302419285
-1.3267709686510827,0.1881415756513925,0.43375289699481256,-3.0588175383804987,0.0022221244492655356,-2.1769110249508272,-0.47663091235133825,0.002808080507202566,-2.1866354984191285,-0.46690643888303685,True,-1.752337356330085,-73.46673530420436,-88.66087470281843,-37.912835693583574
-1.309276130415704,0.18402257903441163,0.4289785298058769,-3.052078459516803,0.0022726268922653274,-2.1500585989761647,-0.468493661855243,0.0028666593628017805,-2.159676034065291,-0.4588762267661166,True,-1.7247844464737043,-72.99845583750785,-88.35226678788979,-37.405555752171416
-1.2917812921803251,0.17995666670575333,0.4242129968609558,-3.04512426950401,0.002325841868050754,-2.1232234878016016,-0.4603390965590487,0.002928292401292581,-2.1327340825698764,-0.45082850179077383,True,-1.6972315366173238,-72.52191181454796,-88.03546690316499,-36.89303843146103
-1.274286453944946,0.17594383866541752,0.41945659926316275,-3.037945895197305,0.0023819671713760974,-2.0964062815783953,-0.45216662631149696,0.002993196705920195,-2.105810240834689,-0.4427626670552034,True,-1.6696786267609431,-72.03695737607804,-87.71027061259842,-36.375185478953775
-1.256791615709567,0.17198409491340425,0.4147096513386254,-3.0305338003415585,0.002441218611834821,-2.069607596374436,-0.4439756350446983,0.0030616086980063957,-2.078905131974617,-0.4346780994445172,True,-1.6421257169045624,-71.54344408861525,-87.37646928203732,-35.85189497059692
-1.2392967774741883,0.16807743544971349,0.4099724813322395,-3.022877958654666,0.002503831966690103,-2.0428280755378974,-0.4357654794104793,0.0031337861929354653,-2.0520194066968838,-0.42657414825149287,True,-1.614572807048182,-71.0412208990085,-87.03385006423274,-35.32306111109319
-1.2218019392388093,0.1642238602743452,0.40524543214494746,-3.014967825230902,0.0025700651777953993,-2.0160683911422765,-0.42753548733534197,0.0032100107087601184,-2.0251537447626147,-0.41845013371500417,True,-1.5870198971918013,-70.53013408820442,-86.68219589092529,-34.788574021190435
-1.2043071010034305,0.16042336938729945,0.4005288621152032,-3.0067923061610435,0.0026402008269939916,-1.989329245518038,-0.4192849564888229,0.0032905900624811166,-1.9983088565360017,-0.4103053454708594,True,-1.5594669873354206,-70.01002722419759,-86.32128547278913,-34.24831951100306
-1.1868122627680517,0.15667596278857626,0.3958231458474558,-2.9983397262610585,0.002714548929752942,-1.96261137287641,-0.4110131526596933,0.0033758612944512715,-1.9714854846266752,-0.4021390409094283,True,-1.53191407747904,-69.48074111415018,-85.95089330808668,-33.70217883834194
-1.1693174245326727,0.15298164047817556,0.3911286750906606,-2.98959779479639,0.0027934500930672113,-1.935915541031236,-0.4027193080341094,0.003466193967659653,-1.9446844056312493,-0.39395044343409613,True,-1.5043611676226594,-68.94211375566672,-85.57078970096187,-33.150028450950856
-1.1518225862972937,0.14934040245609737,0.38644585967001555,-2.980553569084244,0.0028772790910329897,-1.909242553225144,-0.39440261936944343,0.0035619938960309103,-1.9179064319803811,-0.3857387406142062,True,-1.4768082577662787,-68.39398028720885,-85.18074079038087,-32.59173971146047
-1.134327748061915,0.14575224872234174,0.381775128475313,-2.971193415852036,0.002966448920135157,-1.8825932500666804,-0.38606224605714945,0.0036637073645243634,-1.8911524138980633,-0.3775030822257667,True,-1.4492553479098982,-67.83617293763491,-84.78050859081688,-32.02717860377865
-1.116832909826536,0.14221717927690858,0.377116930509502,-2.9615029702263547,0.0030614154064632216,-1.8559685115854543,-0.3776973080676177,0.0037718259139742786,-1.8644232414802744,-0.3692425781727976,True,-1.4217024380535175,-67.26852097484911,-84.36985104587083,-31.456205419535475
-1.0993380715911572,0.13873519411979796,0.37247173600126754,-2.9514670922236528,0.0031626824490520026,-1.8293692594127524,-0.3693068837695618,0.00388689177555783,-1.83771984690054,-0.3609562962817743,True,-1.3941495281971368,-66.6908506535443,-83.94852209612158,-30.87867442309421
-1.0818432333557781,0.13530629325100987,0.36784003758564654,-2.9410698206115904,0.003270807997682407,-1.8027964590955052,-0.36089000761605106,0.004009504053850532,-1.811043206750365,-0.3526432599611914,True,-1.3665966183407563,-66.10298516202246,-83.51627176261019,-30.294433493522988
-1.0643483951203994,0.13193047667054428,0.36322235155692756,-2.9302943240088153,0.003386410880191565,-1.7762511225519235,-0.3524456676888753,0.004140325774034904,-1.784394344522961,-0.34430244571783775,True,-1.3390437084843756,-65.50474456807675,-83.07284624748091,-29.70332374179871
-1.0468535568850204,0.1286077443784012,0.358619219198304,-2.9191228490912158,0.00351017861413039,-1.7497343106775713,-0.34397280309246947,0.004280091928456724,-1.7577743332491291,-0.3359327805209117,True,-1.311490798627995,-64.89594576391823,-82.61798805342983,-29.105179101379765
-1.0293587186496416,0.12533809637458068,0.35403120819297934,-2.9075366657748067,0.0036428763610730857,-1.7232471361110828,-0.3354703011882003,0.004429618680960706,-1.7311842982946115,-0.3275331390046715,True,-1.2839378887716144,-64.276402410131,-82.15143612374837,-28.499825890143082
-1.0118638804142626,0.12212153265908263,0.3494589141216498,-2.895516009249727,0.00378535720975639,-1.696790766169172,-0.3269369946593532,0.00458981391499223,-1.704625420328676,-0.3191023404998491,True,-1.2563849789152337,-63.64592487863765,-81.67292600489638,-27.887082341526536
-0.9943690421788837,0.11895805323190711,0.34490296205151255,-2.8830400187469856,0.003938574007382948,-1.6703664259610331,-0.3183716583967341,0.0047616893441764065,-1.6780989384741396,-0.31063914588362784,True,-1.228832069058853,-63.00432019465866,-81.1821900336958,-27.266758102555745
-0.9875472888214636,0.1177389044762913,0.34313103105998927,-2.878047158168017,0.004001453170042288,-1.6600717516771373,-0.31502282596579,0.004832113436018041,-1.6677645385860247,-0.3073300390569025,True,-1.2180883769600397,-62.751082009580536,-80.98746621997562,-27.022778367670362
-0.9768742039435049,0.11584765809305414,0.34036400822215934,-2.8700866729301424,0.004103592997925495,-1.643975401692632,-0.30977300619437775,0.004946374443010173,-1.6516061536494555,-0.30214225423755414,True,-1.2012791592024725,-62.351391977647154,-80.67895755140312,-26.638653696260274
-0.9593793657081259,0.11279034724252365,0.33584274183391793,-2.8566327218188365,0.004281609573397355,-1.6176190441717884,-0.3011396872444634,0.005145132501669771,-1.6251484321138925,-0.29361029930235916,True,-1.1737262493460918,-61.68694038118125,-80.16295514709712,-26.002559945799863
-0.941884527472747,0.1097861206803157,0.33133988694438177,-2.8426536151708484,0.004473966500361211,-1.5912987725253085,-0.29247028242018547,0.005359379164245267,-1.598727209227183,-0.28504184571831104,True,-1.1461733394897111,-61.01076203179573,-79.6339069330061,-25.35825735742638
-0.9243896892373682,0.10683497840643026,0.326856204479019,-2.8281234272752047,0.004682175051306533,-1.565016078139705,-0.2837633003350315,0.005590703875781077,-1.5723439934353205,-0.2764353850394159,True,-1.1186204296333306,-60.32264996673396,-79.09153485459784,-24.705515459201116
-0.9068948510019892,0.10393692042086734,0.3223924943618684,-2.813014778141975,0.004907939551201302,-1.5387725288372835,-0.2750171731666947,0.0058408947425147,-1.5460003704944172,-0.2677893315095611,True,-1.09106751977695,-59.62239357060142,-78.53555903846453,-24.044092092171535
-0.8894000127666103,0.10109194672362692,0.3179495977723937,-2.7972987511161853,0.005153185946256469,-1.5125697732994985,-0.2662302522337221,0.006111967404313683,-1.5196980079446534,-0.2591020175885672,True,-1.0635146099205692,-58.90977851090102,-77.96569818125285,-23.373732650485593
-0.8719051745312315,0.09830005731470906,0.3135283995345702,-2.780944806995367,0.005420095118036435,-1.4864095457494737,-0.2574008033129893,0.006406198631703695,-1.4934386598463631,-0.25037168921609976,True,-1.0359617000641888,-58.18458667243096,-77.38166998311588,-22.694169266687762
-0.8544103362958525,0.09556125219411368,0.3091298306442031,-2.763920694794567,0.005711141805493635,-1.4602936709054568,-0.2485270016862482,0.006726165495908736,-1.4672241717901482,-0.2415965008015567,True,-1.008408790207808,-57.446596090524494,-76.78319162939711,-22.005119938200064
-0.8369154980604736,0.09287553136184083,0.3047548709403032,-2.7461923593812307,0.006029140165098751,-1.4342240692166202,-0.23960692690432706,0.007074791123617492,-1.4410564861925694,-0.23277450992837767,True,-0.9808558803514273,-56.69558088311173,-76.16998032449452,-21.306287590744898
-0.8194206598250948,0.09024289481789052,0.3004045519260494,-2.7277238462978137,0.006377297200739436,-1.4082027623920443,-0.23063855725814542,0.00745539824430892,-1.414937647888375,-0.2239036717618147,True,-0.9533029704950469,-55.93131118158223,-75.5417538820932,-20.59735907421866
-0.8019258215897158,0.08766334256226271,0.296079959744429,-2.7084772042049856,0.006759275537361901,-1.3822318792328656,-0.2216197639465659,0.007871771973567155,-1.3888698100293597,-0.2149818331500718,True,-0.9257500606386662,-55.153553060427484,-74.89823137619264,-19.87800408627785
-0.7844309833543369,0.0851368745949574,0.2917822383130224,-2.68841238551609,0.007179267303636116,-1.356313661776344,-0.2125483049323299,0.008328233558818893,-1.3628552402987129,-0.20600672640996098,True,-0.8981971507822855,-54.36206846564167,-74.23913385758763,-19.14787401865935
-0.7669361451189581,0.08266349091597465,0.28751259262156614,-2.667487145957553,0.0076420812389555014,-1.3304504717589642,-0.20342181847895202,0.008829727153734222,-1.336896327448049,-0.1969759627898674,True,-0.870644240925905,-53.55661514185872,-73.56418514068103,-18.40660072102675
-0.7494413068835791,0.0802431915253144,0.2832722921948322,-2.6456569439842004,0.008153245560249574,-1.3046447974035569,-0.19423781636360138,0.00938192209519847,-1.3109955881621635,-0.1878870256049947,True,-0.8430913310695243,-52.73694655820351,-72.87311266570741,-17.653795176925943
-0.7319464686482002,0.07787597642297665,0.27906267472196394,-2.6228748412071017,0.00871912962767671,-1.2788992605326657,-0.1849936767637348,0.009991333645181604,-1.2851556742537698,-0.17873726304263082,True,-0.8155384212131436,-51.902811832834395,-72.16564844161843,-16.889046086251135
-0.7144516304128214,0.07556184560896144,0.2748851498516452,-2.5990914052592844,0.009347088050519786,-1.2532166240069418,-0.17568663681870111,0.010665465743844759,-1.2593793801869757,-0.1695238806386673,True,-0.7879855113567631,-51.053955656153995,-71.44153007501346,-16.11191834848034
-0.6969567921774424,0.07330079908326874,0.27074120315029393,-2.5742546168362397,0.010045631592728615,-1.2275997994830607,-0.16631378487182413,0.011412980016640975,-1.2336696509239435,-0.16024393343094145,True,-0.7604326015003824,-50.190118212664714,-70.70050189057855,-15.321951440849924
-0.6794619539420635,0.07109283684589855,0.2666324002177878,-2.54830978300864,0.01082463009046048,-1.2020518554803972,-0.1568720524037298,0.012243896105593965,-1.2080295900838354,-0.15089431780029183,True,-0.7328796916440017,-49.31103510144524,-69.94231614850787,-14.518657685616471
-0.6664684354491776,0.06948732437167893,0.2636044847336231,-2.528289441367644,0.011461981522130765,-1.1831237316903174,-0.14981313920803785,0.012921800385186392,-1.1890335822888436,-0.1439032886095114,True,-0.712415984638828,-48.64810955786349,-69.36796201253543,-13.913117597323216
-0.6619671157066848,0.0689379588968509,0.2625603909519692,-2.52119945931898,0.011695553601751245,-1.1765760257393008,-0.14735820567406888,0.013169829373297862,-1.1824624683966964,-0.14147176301667308,True,-0.7053267817876212,-48.41643725522337,-69.16673436430463,-13.70152040062047
-0.6444722774713058,0.06683616523612576,0.25852691394925553,-2.492863383646798,0.012671759191262176,-1.1511757178461322,-0.13776883709647925,0.014204273177741424,-1.1569717324271518,-0.13197282251545972,True,-0.6777738719312405,-47.506050858020686,-68.37352873617142,-12.869991927543081
-0.6269774392359269,0.06478745586372313,0.25453380102399586,-2.463238425362686,0.013768832129236552,-1.1258545220910432,-0.12810035638081063,0.015362934255746313,-1.1315610135335046,-0.12239386493834925,True,-0.6502209620748598,-46.579597261343785,-67.56248368487601,-12.02349153256003
-0.609482601000548,0.06279183077964302,0.25058298182367256,-2.432258553892626,0.015004991866815781,-1.1006162205136012,-0.11834898148749479,0.016664131297367008,-1.1062341370168338,-0.11273106498426211,True,-0.6226680522184793,-45.63679289889625,-66.73339751048705,-11.16140317457571
-0.5919877627651691,0.06084928998388544,0.2466764885105296,-2.399854831482651,0.016401574943476355,-1.0754647960786154,-0.10851072945172263,0.018129268549188515,-1.0809951314017778,-0.10298039412856036,True,-0.5951151423620986,-44.67734919978557,-65.88608416968239,-10.283073136902559
-0.5744929245297902,0.05895983347645037,0.24281646047261782,-2.365955435688328,0.017983608973434623,-1.0504044419096148,-0.0985814071499656,0.019783398241912824,-1.0558482377756306,-0.09313761128394965,True,-0.5675622325057179,-43.700972500198084,-65.02037517639707,-9.38780751917219
-0.5569980862944113,0.057123461257337825,0.23900514901846326,-2.330485717909713,0.01978049400585119,-1.025439570490228,-0.08855660209859462,0.02165588776253305,-1.0307979190949756,-0.08319825349384691,True,-0.5400093226493374,-42.70736395351527,-64.13612162735934,-8.474869587472497
-0.5395032480590324,0.05534017332654779,0.2352449219994935,-2.2933683051411156,0.02182680977545466,-1.000574822723974,-0.07843167339409085,0.023781209709799873,-1.005848869349106,-0.07315762676895893,True,-0.5124564127929567,-41.69621943884359,-63.2331963525093,-7.543476982245605
-0.5220084098236535,0.05360996968408027,0.23153826829291152,-2.254523252991068,0.024163269509221555,-0.9758150767205325,-0.06820174292677456,0.02619987515004052,-0.9810060224467987,-0.06301079720050828,True,-0.484903502936576,-40.667229467930014,-62.31149618835483,-6.592798785407614
-0.5045135715882746,0.05193285032993529,0.22788780206482157,-2.213868258928436,0.026837842792556483,-0.9511654561513174,-0.057861687025231756,0.028959532308129282,-0.9562745606674663,-0.05275258250908288,True,-0.45735059308019554,-39.62007909043473,-61.37094436994042,-5.62195245051777
-0.4870187333528957,0.05030881526411281,0.22429626671907138,-2.1713189455929793,0.02990707115746849,-0.9266313379890656,-0.04740612871672584,0.032116254241547425,-0.9316599224892741,-0.04237754421651735,True,-0.42979768322381484,-38.55444779753208,-60.41149303422808,-4.630000602686469
-0.46952389511751674,0.048737864486612846,0.22076653842150273,-2.126789224828399,0.03343759999180732,-0.9022183594152402,-0.036829430819793285,0.035736039239982476,-0.9071678095755564,-0.031879980659477,True,-0.40224477336743414,-37.47000942381005,-59.433125824263186,-3.615947718323604
-0.45202905688213796,0.04721999799743541,0.21730162907220785,-2.080191753794592,0.037507948306201355,-0.8779324236455472,-0.026125690118728617,0.03989654602764236,-0.8828041926669692,-0.021253921097306727,True,-0.37469186351105366,-36.36643204743856,-58.43586057947366,-2.578736698839172
-0.434534218646759,0.04575521579658049,0.21390468858017228,-2.0314384950187474,0.04221053276132689,-0.8537797043881529,-0.015288732905365143,0.044689081286642715,-0.8585753160907026,-0.01049312120281548,True,-0.34713895365467295,-35.24337788857571,-57.419752092786844,-1.5172453570559434
-0.41703938041138006,0.044343517884048084,0.2105790062756686,-1.9804413924597712,0.04765395272100869,-0.8297666486119246,-0.00431211221083555,0.050220848173294,-0.8344877005603879,0.00040893973762784475,True,-0.31958604379829225,-34.10050320598111,-56.384894909924085,-0.4302828404042132
-0.39954454217600127,0.04298490425983821,0.20732801127642692,-1.927113175475818,0.05396552711790414,-0.8058999772641122,0.006810892912109678,0.05661744955311213,-0.8105481439019881,0.01145905954998555,True,-0.29203313394191177,-32.937458191804566,-55.3314261402449,0.6834139790604457
-0.3820497039406223,0.041679374923950845,0.20415527160460697,-1.8713683018704914,0.061294049344275556,-0.7821866835396447,0.018087275658400126,0.06402561638219526,-0.7867637193032966,0.02266431142205194,True,-0.26448022408553107,-31.753886864517767,-54.25952824189384,1.825184111172396
-0.36455486570524337,0.040426929876385985,0.20106449183380437,-1.81312404980277,0.06981269061185966,-0.7586340282693478,0.029524296858860988,0.07261609736708036,-0.7631417706494031,0.0340320392389164,True,-0.23692731422915037,-30.54942695995661,-53.16943173682639,2.996446006899907
-0.34706002746986453,0.039227569117143674,0.19805950902984606,-1.7523017661200262,0.07972193252487392,-0.7352495319640484,0.041129477024319405,0.08258659788159366,-0.7396899044757934,0.045569849536064355,True,-0.20937440437276988,-29.32370982044033,-52.061417803680584,4.198701018922394
-0.32956518923448563,0.038081292646223855,0.19514428673733664,-1.6888282754497392,0.09125234352043728,-0.7120409630284228,0.05291058455945152,0.09416459141384244,-0.7164159780473784,0.05728559957840712,True,-0.18182149451638918,-28.076360281933795,-50.935820688612324,5.433536704313086
-0.3187972911264538,0.03740216226363161,0.19339638637687007,-1.6484138979991898,0.09926776599977764,-0.6978472431653119,0.06025266091240433,0.10220106034398503,-0.7021830713320335,0.06458848907912595,True,-0.1648629538358976,-27.297709163486374,-50.23445172976652,6.210486503140339
-0.3120703509991067,0.036988100463626564,0.19232290675742858,-1.6226374500085534,0.10466692988760552,-0.6890163216457217,0.06487561964750832,0.10760974371478796,-0.693328083058883,0.06918738106066974,True,-0.15426858466000848,-26.806996559218376,-49.79302986638948,6.702629902295976
-0.29457551276372784,0.03594799256935179,0.18959955846296633,-1.5536719344273473,0.12026269090743057,-0.6661838188358382,0.07703279330838259,0.12321558840294558,-0.6704345244533659,0.08128349892591025,True,-0.126715674803628,-25.515230129036247,-48.63349187659849,8.007749512622318
-0.2770806745283488,0.03496096896339953,0.18697852540706253,-1.4818850128651349,0.13837089349818774,-0.6435518502085988,0.08939050115190122,0.14130997658769337,-0.6477437938752824,0.09358244481858485,True,-0.09916276494724707,-24.200665611172187,-47.45771175320098,9.350758893515906
-0.25958583629297,0.0340270296457698,0.18446416900246454,-1.4072425972845806,0.15935546432412595,-0.6211289639759103,0.10195729138997034,0.16225370106289894,-0.6252645373167338,0.10609286473079382,True,-0.07160985509086659,-22.862900647436852,-46.26625396042463,10.733617792901946
-0.24209099805759116,0.03314617461646259,0.1820609090839178,-1.3297253060842595,0.1836087938292862,-0.5989238228546911,0.11474182673950889,0.18643658433256613,-0.6030055165846182,0.1188235204694359,True,-0.04405694523448611,-21.50152577851399,-45.0597427447007,12.158383723384238
-0.2245961598222121,0.03231840387547788,0.17977320121608192,-1.2493305915616106,0.21154418333009206,-0.576945159591205,0.12775283994678072,0.21427024514965357,-0.5809755643162211,0.13178324467179697,True,-0.016504035378105186,-20.116124318634355,-43.83886181175517,13.627212690849444
-0.20710132158683328,0.031543717422815705,0.17760551067693733,-1.1660748633163107,0.24358417868883864,-0.5552017259694745,0.14099908279580795,0.24617675648606,-0.5591835324043549,0.1449808892306884,True,0.011048874478275295,-18.706272228037747,-42.60435324073211,15.14235918937145
-0.18960648335145447,0.030822115258476043,0.1755622831318733,-1.079995543285524,0.2801441647884565,-0.53370223533355,0.15448926863064105,0.28257252331303806,-0.5376382338621564,0.15842526715924737,True,0.038601784334655775,-17.27153798318403,-41.357015554071666,16.706175381954854
-0.17211164511607538,0.030153597382458895,0.17364791211661285,-0.9911529774138269,0.3216108875477518,-0.512455298855213,0.16823200862306228,0.3238469881446495,-0.5163483783617785,0.17212508812962776,True,0.0661546941910367,-15.811482444673658,-40.097700873390394,18.321109398203618
-0.1546168068806966,0.029538163794764274,0.1718667035663519,-0.8996321199644368,0.3683160580048255,-0.49146935601236796,0.1822357422509748,0.37033625429623995,-0.4953225019175477,0.18608888815615446,True,0.09370760404741718,-14.325658722837224,-38.82731110826415,19.98970269667793
-0.13712196864531778,0.02897581449539217,0.17022283776095432,-0.8055439002719458,0.420505883787328,-0.47075260000299296,0.1965086627123574,0.42229241456658817,-0.47456889144674824,0.20032495415611268,True,0.12126051390379766,-12.813612040952568,-37.54679314679188,21.714586461704748
-0.11962713040993869,0.02846654948434258,0.16872032919699564,-0.7090261794727986,0.4783082310399168,-0.45031289909579186,0.2110586382759145,0.4798502552357727,-0.4540955052206309,0.21484124440075356,True,0.1488134237601786,-11.274879596048109,-36.25713304398147,23.498477031593282
-0.1021322921745599,0.02801036876161551,0.1673629850403473,-0.6102442075225785,0.5417000493832185,-0.43015771519875645,0.2258931308496367,0.5429939781283061,-0.4339098905015073,0.22964530615238754,True,0.17636633361655907,-9.708990417249458,-34.9593492357867,25.344170387022096
-0.0846374539391811,0.027607272327210962,0.16615436294967087,-0.5093904995129034,0.6104785342831395,-0.41029402119473235,0.24101911331637016,0.6115274832838435,-0.41401909993274455,0.24474419205438236,True,0.20391924347293955,-8.115465221625865,-33.65448484201493,27.254535763780407
-0.067142615703802,0.02725726018112893,0.1650977291822299,-0.4066840654706523,0.6842400452872968,-0.39072821883032005,0.2564429874227161,0.6850523600008276,-0.39442960848842445,0.2601443770808204,True,0.23147215332932047,-6.4938162674927105,-32.34359915880794,29.232508491555144
-0.0496477774684232,0.026960332323369415,0.16419601798877284,-0.302368949482185,0.7623708223188804,-0.3714660591313088,0.2721705041944624,0.7629578043587757,-0.37514723297843505,0.27585167804158867,True,0.25902506318570095,-4.843547205125003,-31.02775847902134,31.28108219810679
-0.032152939233044395,0.026716488753932423,0.16345179336407548,-0.19671206152768453,0.8440528707839163,-0.35251256743511533,0.2882066889690265,0.8444260223375897,-0.356177056223381,0.29187117775729216,True,0.28657797304208144,-3.1641529248358937,-29.708026414296345,33.40330055367443
-0.014658100997665312,0.026525729472817942,0.16286721423545605,-0.09000031753766104,0.9282869624952886,-0.33387197516152833,0.30455577316619775,0.9284552177902318,-0.3375233580448749,0.3082071560495443,True,0.31413088289846236,-1.4551194023742102,-28.385453923454506,35.60224876131426
0.002836737237713491,0.02638805448002599,0.16244400413689017,0.01746286206613694,0.9860673601036237,-0.31554766037506676,0.32122113485049375,0.986099881130078,-0.3191895551480087,0.32486302962343566,True,0.34168379275484284,0.2840764584065459,-27.06106927560446,37.88104502266644
0.020331575473092296,0.02630346377555655,0.16218342632820576,0.12536161020515063,0.9002372789216136,-0.2975420990194962,0.33820524996568074,0.9004725135985012,-0.3011781517980571,0.3418413027442417,True,0.3692367026112233,2.0539669856561535,-25.735868190865773,40.24283222319158
0.03782641370847138,0.026271957359409622,0.16208626517817487,0.2333721100112359,0.8154724682937723,-0.27985682842936005,0.35550965584630284,0.8159183461949233,-0.28349070291462963,0.3591435303315724,True,0.39678961246760425,3.855093902461087,-24.410804405251167,42.69077008458472
0.05532125194385018,0.026293535231585223,0.16215281444238094,0.3411673866660386,0.732977573648673,-0.2624924243550228,0.37313492824272315,0.7336466025055197,-0.26612779083391036,0.3767702947216107,True,0.4243425223239847,5.688008492653494,-23.086780898108014,45.22802802396848
0.07281609017922899,0.026368197392083337,0.16238287284095984,0.448422231392261,0.6538485003120333,-0.24544849229519958,0.39108067265365754,0.654755246897282,-0.2490890165420436,0.39472119690050156,True,0.4518954321803652,7.5532717695467735,-21.764642000603317,47.85777893958371
0.09031092841460807,0.026495943840903976,0.16277574709060308,0.5548180857946844,0.5790190952343454,-0.22872367343957445,0.4093455302687906,0.5801770364398837,-0.23237300568572755,0.4129948625149437,True,0.47944834203674613,9.451454647648847,-20.445166572983815,50.58319411197648
0.10780576664998688,0.026676774578047124,0.16333026228487826,0.6600477164602456,0.5092232088549761,-0.21231566501385524,0.42792719831382897,0.5106415452703345,-0.21597742914998963,0.43158896244996336,True,0.5070012518931266,11.383138117405975,-19.12906239858051,53.40743936995451
0.12530060488536568,0.026910689603512793,0.16404477926320238,0.7638195220118926,0.44497480147756785,-0.1962212543223341,0.4468224640930655,0.4466558036020315,-0.19989903749014873,0.4505002472608801,True,0.5345541617495071,13.34891342303084,-17.816961896305354,56.33367262440184
0.14279544312074477,0.027197688917300986,0.16491721837728462,0.8658613365286613,0.38656620795521446,-0.18043636532926022,0.46602725157074976,0.3885035199757566,-0.18413370804601709,0.4697245942875066,True,0.562107071605888,15.349382243468826,-16.5094192037254,59.36504282341248
0.16029028135612358,0.027537772519411693,0.16594508886800988,0.9659236223834016,0.33408240096930664,-0.1649561162364744,0.48553667894872155,0.33626050755917936,-0.16867650317814634,0.4892570658903935,True,0.5896599814622685,17.385156876558106,-15.206908632883684,62.504690332329474
0.17778511959150237,0.02793094040984492,0.16712552291569627,1.0637819794956342,0.2874274766384731,-0.14977488622068583,0.5053451254036906,0.289822306652221,-0.15352173776849024,0.509091976951495,True,0.617212891318649,19.456860426440205,-13.909824453913608,65.75574869519151
0.19527995782688146,0.028377192588600667,0.16845531332849276,1.159238933865386,0.24635880547125388,-0.13488638930137448,0.5254463049551374,0.24893925764409683,-0.13866305393325795,0.5292229695870209,True,0.6447658011750299,21.56512699427791,-12.618481919792854,69.12134769242823
0.21277479606226027,0.028876529055678928,0.16993095378911674,1.2521250032310915,0.21052431818292083,-0.12028375322294879,0.5458333453474693,0.21325438122414747,-0.12409350080737855,0.5496430929318991,True,0.6723187110314104,23.710601872338994,-11.333119411304224,72.60461757540983
0.23026963429763905,0.02942894981107971,0.17154868058682268,1.3422990693367476,0.17949904507385073,-0.10595960124789897,0.5664988698431771,0.1823401550576621,-0.10980561727325958,0.5703448858685377,True,0.6998716208877909,25.89394174150569,-10.053901555671775,76.20869433290072
0.24776447253301814,0.03003445485480302,0.1733045148136742,1.4296481127418894,0.15281803933152913,-0.09190613485997157,0.5874350799260079,0.15573135682460937,-0.09579151560997623,0.5913204606760125,True,0.7274245307441718,28.115814872269613,-8.780923155907493,79.9367258280759
0.2652593107683969,0.030693044186848834,0.17519430409362297,1.5140863862026226,0.13000393102236932,-0.07811521555166223,0.6086338370884561,0.13295230298767408,-0.08204296421630419,0.612561585753098,True,0.7549774406005523,30.376901329273988,-7.514213760409145,83.79187863731181
0.28275414900377577,0.03140471780721717,0.1772137630298989,1.5955541159411555,0.11058837872412974,-0.06457844409964181,0.6300867421071934,0.11353784822384788,-0.06855146779295146,0.6340597658005029,True,0.7825303504569328,32.677893179466125,-6.253742702983731,87.77734542264338
0.2922161138226054,0.03181174068544337,0.17835846121068483,1.6383641787390557,0.1013457469772519,-0.05736004648832116,0.6417922741335319,0.10428311893089208,-0.06135873361158223,0.6457909612567929,True,0.7974321552184223,33.93924475850776,-5.574596719288316,89.98829407323277
0.30024898723915483,0.03216947571590803,0.17935851169071412,1.6740158267866556,0.0941274889216569,-0.051287235995351066,0.6517852104736608,0.09704830680099973,-0.055308343635979085,0.6558063181142888,True,0.8100832603133137,35.019494703923215,-4.999424450997601,91.89635267735162
0.31774382547453367,0.0329873179129214,0.18162411159568378,1.7494583878921763,0.08021181570865737,-0.03823289197709018,0.6737205429261575,0.08307897928513852,-0.042304792975683736,0.6777924439247511,True,0.8376361701696942,37.402422613416576,-3.75112411228654,96.15216869713032
0.33523866370991245,0.03385824439825729,0.18400609880723326,1.8218888715265467,0.06847184920641784,-0.025406662887983322,0.6958839903078082,0.07126523859439707,-0.029531966576451796,0.7000092939962768,True,0.8651890800260746,39.82740626778065,-2.5086629682308073,100.54811164610176
0.3527335019452915,0.03478225517191571,0.18650001386572523,1.8913323094938197,0.058579998309340554,-0.01279980834775063,0.7182668122383337,0.06128420285973173,-0.016981024079657958,0.722448027970241,True,0.8927419898824556,42.29518789915335,-1.2718239194957393,105.08755760609753
0.37022834018067036,0.035759350233896633,0.18910142842902228,1.9578294212602028,0.05025003187048246,-0.0004036489652919917,0.7408603293266327,0.05285396240439856,-0.004643186813492017,0.7450998671748328,True,0.920294899738836,44.806522839156216,-0.04035675100085499,109.77394851773867
0.38772317841604914,0.03678952958420007,0.19180596858335788,2.0214343759982976,0.043234819184958424,0.011790387972846594,0.7636559688592517,0.045731192533052085,0.007490215995959448,0.7679561408361388,True,0.9478478095952165,47.36217975008439,1.1860168574241599,114.61079994179923
0.4052180166514282,0.03787279322282605,0.19460933488100218,2.0822126384595423,0.037323051369462804,0.023790729229369423,0.786645304073487,0.039707818007717666,0.01942770750237749,0.791008325800479,True,0.9754007194515975,49.962940860176545,2.407598629389854,119.60170858824088
0.42271285488680704,0.03900914114977454,0.19750731923089468,2.1402389366271395,0.032335461991141436,0.035605622511198254,0.8098200872624158,0.03460722978864044,0.031177629755500036,0.814248080018114,True,1.002953629307978,52.60960220303693,3.624709336824592,124.7503595775379
0.44020769312218583,0.04019857336504554,0.20049581882185358,2.195595378042887,0.02812091736266282,0.04724310918048491,0.8331722770638867,0.030280407605293703,0.04274811609998502,0.8376672701443866,True,1.0305065391643584,55.30297386128332,4.837684813793337,130.06053341407963
0.45770253135756495,0.041441089868639064,0.20357084729557684,2.2483697319046816,0.0245526235827479,0.0587110023559313,0.8566940603591986,0.026602181135527824,0.05414706902623845,0.8612579936888914,True,1.0580594490207393,58.04388021449471,6.046872348821388,135.53611266434638
0.47519736959294373,0.0427366906605551,0.20672854341032615,2.2986538856888568,0.021524601061300004,0.07001686993227935,0.8803778692536082,0.023467769392276457,0.0653821429956698,0.8850125961902177,True,1.0856123588771198,60.83316019153495,7.252627454721916,141.1810883431845
0.4926922078283225,0.04408537574079365,0.209965177448056,2.346542478217424,0.01894850618692134,0.08116802202257117,0.9042163936340739,0.020789669949444985,0.07646073173930829,0.9089236839173367,True,1.1131652687335003,63.67166752732998,8.455311006553043,146.99956601994572
0.5101870460637016,0.04548714510935475,0.21327715561999308,2.3921317057168943,0.01675083018671479,0.09217150232337074,0.9282025898040325,0.018494922736469303,0.08738995952425443,0.9329841326031487,True,1.1407181785898812,66.56027102417646,9.655286731970254,152.99577166267878
0.5276818842990804,0.04694199876623833,0.2166610227203738,2.4355182933854933,0.01487047266423169,0.10303408291353333,0.9523296856846274,0.01652274272142245,0.09817667589295387,0.9571870927052069,True,1.1682710884462617,69.4998548176622,10.852919033669927,159.1740572432034
0.5451767225344593,0.04844993671144444,0.22011346326711695,2.4767986221400022,0.013256667534394258,0.1137622620185299,0.9765911830503886,0.014822497631573645,0.10882745340194883,0.9815259916669696,True,1.1958239983026422,72.49131864728015,12.04857112058346,165.5389061290031
0.5626715607698383,0.050010958944973094,0.22363130135330586,2.516067998374238,0.011867228448559893,0.12436226430153535,1.0009808572381411,0.013351997338481136,0.11934858791629627,1.0059945336233802,True,1.2233769081590231,75.53557813181796,13.24260342272716,172.0949382896969
0.5801663990052172,0.05162506546682424,0.22721149941590596,2.553420053547706,0.010667076391060393,0.13484004327669796,1.0254927547337362,0.012076057830103614,0.1297461010504415,1.0305866969599928,True,1.2509298180154036,78.6335650496079,14.435372263895715,178.8469153466464
0.5976612372405959,0.05329225627699789,0.23085115610929458,2.588946260063944,0.009627011711793407,0.14520128547694489,1.050121189004247,0.010965302684709341,0.14002574438369808,1.0552967300974938,True,1.278482727871784,81.78622762372312,15.627228766482057,185.7997454942334
0.615156075475975,0.0550125313754941,0.23454750345184683,2.622735550038664,0.008722694832778261,0.15545141604657114,1.0748607349053787,0.009995167132860023,0.1501930051168084,1.0801191458351416,True,1.306035637728165,84.99453081220706,16.818517963417364,192.95848832071144
0.6247035205504421,0.055973725444316065,0.2365876696793729,2.6404737043018747,0.008279021712198433,0.1610002087926123,1.0884068323082718,0.009517539017373424,0.15569605858943375,1.0937109825114504,True,1.3210720667569036,86.76921430004796,17.468521407944046,196.95393278269552
0.6326509137113538,0.0567858907623128,0.23829790339470636,2.6548740240633095,0.007933803118296069,0.1655956054663243,1.0997062219563833,0.009145073103409136,0.16025311287395466,1.105048714548753,True,1.3335885475845455,88.2594566034249,18.009578093379847,200.32835955546085
0.6501457519467326,0.05861233443745402,0.2420998439434731,2.685444737826979,0.0072433351919469185,0.17563877715475784,1.1246527267387074,0.008397747414431724,0.17021104739106163,1.1300804565024036,True,1.361141457440926,91.58200431662794,19.200740056880022,207.91473576810225
0.6676405901821116,0.060491862400917785,0.24595093494621603,2.7145275553764807,0.006637037856566475,0.18558561572357446,1.1496955646406488,0.00773865906549141,0.1800715468655698,1.1552096334986535,True,1.3886943672973069,94.96319090782254,20.392327012475004,215.7231590433617
0.6851354284174905,0.06242447465270403,0.2498489036451912,2.7421990587977403,0.006102934452598801,0.19544057569609757,1.1748302811388835,0.007155555167798089,0.189839116774635,1.1804317400603461,True,1.4162472771536874,98.40405128103674,21.58465409410532,223.75934165392928
0.7026302666528693,0.06441017119281281,0.2537915900750315,2.768532505135975,0.005630936834223371,0.20520789052665456,1.200052642779084,0.006638078287271537,0.19951803899768095,1.2057424943080577,True,1.4438001870100678,101.90563860508111,22.778028232313105,232.02917075187824
0.7201251048882484,0.06644895202124412,0.25777694237701737,2.7935978223956646,0.005212526090588081,0.21489158178443757,1.2253586279920592,0.006177450822543516,0.20911238110531194,1.231137828671185,True,1.4713530968664488,105.46902463589961,23.97274806383698,240.53871309756687
0.7376199431236272,0.06854081713799794,0.26180301208732865,2.817461637445111,0.0048404896834681336,0.22449546838835865,1.2507444178588958,0.0057662144923787215,0.2186260056998015,1.256613880547453,True,1.4989060067228293,109.09530004460943,25.169103915748465,249.29421984337142
0.755114781359006,0.07068576654307425,0.26586794944685277,2.84018732957488,0.004508704833553498,0.2340231757996588,1.276206386918353,0.005398015088167579,0.22806257971285382,1.2821669830051583,True,1.5264589165792097,112.7855747513308,26.36737785187347,258.3021313881201
0.7726096195943851,0.07288380023647313,0.26996999877111,2.8618351043125743,0.004211959801480207,0.24347814509668686,1.3017410940920833,0.005067424393582011,0.23742558358418497,1.3077936556045853,True,1.5540118264355907,116.54097826490806,27.56784377070916,267.5690823167286
0.7901044578297639,0.0751349182181945,0.2741074939110467,2.88246208287238,0.003945806218809647,0.25286364187158017,1.3273452737879476,0.004769792626683495,0.24671832025997043,1.3334905953995575,True,1.5815647362919711,120.36266002862635,28.77076754539879,277.1019064382915
0.8075992960651427,0.07743912048823838,0.27827885382874207,2.902122403314749,0.003706436871164298,0.2621827649017221,1.3530158272285633,0.004501125961277238,0.2559439239634925,1.359254668166793,True,1.6091176461483516,124.25178977203035,29.976407197556505,286.9076419347611
0.8250941343005218,0.07979640704660482,0.2824825783063529,2.920867330110905,0.003490584360903446,0.27143845456005444,1.3787498140409893,0.004257984672962317,0.26510536870165546,1.385082899899388,True,1.6366705560047325,128.20955786895163,31.185013097844106,296.9935366313445
0.8425889725359006,0.08220677789329373,0.28671724380178765,2.9387453693521,0.003295436916328795,0.2806335009378068,1.4045444441339945,0.004037398265976917,0.27420547648062765,1.4109724685911735,True,1.664223465861113,132.23717570185454,32.39682818719697,307.3670533988638
0.8600838107712794,0.08467023302830516,0.2909814994605416,2.9558023873195096,0.003118568300146108,0.28977055166115673,1.4303970698814021,0.003836794599955136,0.28324692521191497,1.4369206963306438,True,1.6917763757174935,136.33587603261336,33.612088213481144,318.0358756975643
0.8775786490066585,0.08718677245163915,0.29527406328974976,2.9720817305429854,0.0029578793289066446,0.2988521193899485,1.4563051786233685,0.003653940577058117,0.2922322562968541,1.462925041716463,True,1.7193292855738744,140.50691337983224,34.83102197914636,329.00791327117963
0.8950734872420373,0.08975639616329563,0.2995937184977276,2.9876243458316245,0.0028115489702845212,0.30788058899205983,1.4822663854920148,0.0034868923914843563,0.3011638818830449,1.4889830926010297,True,1.746882195430255,144.75156440282447,36.053851596128,340.29130799950656
0.9125683254774161,0.09237910416327462,0.3039393099999976,3.0024688990621953,0.002677993355375386,0.31685822439146616,1.508278426563366,0.0033339537033248404,0.3100440917907469,1.5150925591640854,True,1.7744351052866354,149.07112829236925,37.28079274485512,351.89443991726085
0.9300631637127952,0.09505489645157617,0.3083097410909622,3.016651891768784,0.0025558313444803576,0.32578717509164046,1.53433915233395,0.003193640392170155,0.31887506011089883,1.5412512673146916,True,1.8019880151430163,153.4669271683641,38.51205493474464,363.82593340659
0.947558001948174,0.0977837730282002,0.31270397027892083,3.030207774794116,0.002443855529999008,0.33466948237880567,1.5604465215175423,0.0030646507851711125,0.32765885147932783,1.56745715241702,True,1.8295409249993968,157.9403064844953,39.74784176401905,376.0946635702942
0.9650528401835528,0.10056573389314674,0.31712100828098216,3.0431690584449598,0.0023410077596620745,0.3435070852117995,1.5865985951553059,0.002945840449521985,0.33639742703398623,1.5937082533331193,True,1.8570938348557773,162.492635440051,40.988351177077604,388.70976279255837
0.9825476784189319,0.10340077904641586,0.3215599151735425,3.0555664187455123,0.002246358425989809,0.35230182580703373,1.61279353103083,0.002836200798821717,0.3450926500637954,1.6200027067740683,True,1.8846467447121582,167.12530739900183,42.23377571798863,401.68062749378777
1.000042516654311,0.10628890848800748,0.3260197976933418,3.0674287995079466,0.0021590889005474617,0.36105545492832647,1.6390295783802955,0.002734840893177948,0.3537462913589873,1.6463387419496347,True,1.9121996545685391,171.8397403164773,43.48430277896126,415.0169250860041
1.0175373548896898,0.10923012221792158,0.3304998066836372,3.078783510042117,0.0020784765999449875,0.36976963689231057,1.6653050728870689,0.0026409719196935494,0.36236003427376673,1.6727146755056128,True,1.9397525644249196,176.63737717277002,44.74011484290148,428.72860113515793
1.0350321931250686,0.11222442023615818,0.33499913467971554,3.0896563184100088,0.0020038822591744773,0.3784459543007431,1.691618431949394,0.0025538939275279136,0.37093547951275396,1.6991289067373831,True,1.9673054742813,181.51968641499886,46.001389719366784,442.8258867366555
1.0525270313604473,0.11527180254271731,0.339517013627767,3.1000715401979715,0.0019347390604999403,0.3870859125114293,1.7179681502094653,0.0024729844636296053,0.3794741496530487,1.725579913067846,True,1.9948583841376806,186.48816240656708,47.26830077341178,457.3193061103729
1.0700218695958261,0.11837226913759898,0.34405271273105664,3.110052122833439,0.001870543325707851,0.39569094385964976,1.7443527953320026,0.002397688814392089,0.3879774934139453,1.752066245777707,True,2.022411293994061,191.54432588455288,48.5410171469655,472.21968442145396
